#
#
# "== FILTER DATA - LAMBDA 9 SPECTROPHOTOMETER =="
# "   KITT PEAK NATIONAL OBSERVATORY - NOAO"
#  ------------------------------------------------
# "FILTER: MOSAIC B_W, BANDPASS TEST, POSN 9, .2SLIT,15NM/MIN,1SEC      "
# "DATE: ""10/ 8/97"   "TIME: ""12:39:56"
# " CWL= "  4135.49A  "FWHM= " 1277.81A  "TMAX= "94.81 %
# "TCUTOFF= " 2.00 %  "SLITSIZE= " 2 A
# 
# 
# 
# 
# "NPTS= " 901     "DISP= " 2.00A/INTERVAL
   3200.00     -.010
   3202.00     -.015
   3204.00     -.005
   3206.00      .010
   3208.00     -.010
   3210.00     -.015
   3212.00     -.010
   3214.00     -.020
   3216.00     -.020
   3218.00     -.010
   3220.00      .005
   3222.00      .005
   3224.00      .000
   3226.00      .000
   3228.00     -.010
   3230.00      .010
   3232.00     -.005
   3234.00      .000
   3236.00     -.005
   3238.00     -.005
   3240.00     -.020
   3242.00      .000
   3244.00      .000
   3246.00      .000
   3248.00     -.015
   3250.00     -.005
   3252.00      .005
   3254.00      .005
   3256.00     -.015
   3258.00     -.010
   3260.00     -.010
   3262.00     -.010
   3264.00      .000
   3266.00     -.005
   3268.00     -.015
   3270.00      .010
   3272.00      .010
   3274.00     -.025
   3276.00     -.010
   3278.00     -.005
   3280.00      .000
   3282.00     -.020
   3284.00     -.010
   3286.00     -.005
   3288.00      .005
   3290.00     -.010
   3292.00      .000
   3294.00     -.030
   3296.00      .000
   3298.00     -.005
   3300.00     -.005
   3302.00     -.010
   3304.00      .005
   3306.00     -.020
   3308.00     -.015
   3310.00      .000
   3312.00      .005
   3314.00     -.015
   3316.00     -.015
   3318.00     -.010
   3320.00      .000
   3322.00     -.005
   3324.00     -.005
   3326.00     -.015
   3328.00      .000
   3330.00      .000
   3332.00      .000
   3334.00     -.025
   3336.00     -.005
   3338.00      .000
   3340.00      .005
   3342.00      .000
   3344.00      .000
   3346.00     -.020
   3348.00     -.005
   3350.00      .000
   3352.00     -.010
   3354.00     -.015
   3356.00     -.020
   3358.00      .000
   3360.00      .005
   3362.00      .005
   3364.00     -.005
   3366.00     -.005
   3368.00      .000
   3370.00      .000
   3372.00      .000
   3374.00      .000
   3376.00      .010
   3378.00      .000
   3380.00     -.015
   3382.00     -.005
   3384.00      .000
   3386.00     -.005
   3388.00      .010
   3390.00     -.005
   3392.00     -.015
   3394.00      .000
   3396.00      .000
   3398.00     -.010
   3400.00      .010
   3402.00      .005
   3404.00      .020
   3406.00      .015
   3408.00      .015
   3410.00      .010
   3412.00      .025
   3414.00      .030
   3416.00      .045
   3418.00      .055
   3420.00      .070
   3422.00      .095
   3424.00      .100
   3426.00      .140
   3428.00      .195
   3430.00      .275
   3432.00      .345
   3434.00      .435
   3436.00      .580
   3438.00      .765
   3440.00     1.055
   3442.00     1.340
   3444.00     1.730
   3446.00     2.325
   3448.00     3.050
   3450.00     4.035
   3452.00     5.305
   3454.00     7.075
   3456.00     9.105
   3458.00    11.750
   3460.00    15.230
   3462.00    19.545
   3464.00    24.275
   3466.00    29.680
   3468.00    34.765
   3470.00    40.020
   3472.00    44.320
   3474.00    47.860
   3476.00    50.465
   3478.00    52.205
   3480.00    53.110
   3482.00    54.140
   3484.00    54.555
   3486.00    54.710
   3488.00    54.720
   3490.00    54.935
   3492.00    54.945
   3494.00    55.450
   3496.00    56.200
   3498.00    56.000
   3500.00    57.010
   3502.00    56.515
   3504.00    57.375
   3506.00    57.950
   3508.00    58.350
   3510.00    59.365
   3512.00    59.165
   3514.00    59.730
   3516.00    59.715
   3518.00    60.075
   3520.00    60.850
   3522.00    61.165
   3524.00    61.765
   3526.00    62.025
   3528.00    62.275
   3530.00    63.090
   3532.00    63.795
   3534.00    64.190
   3536.00    64.735
   3538.00    65.670
   3540.00    66.495
   3542.00    67.255
   3544.00    67.625
   3546.00    68.140
   3548.00    68.395
   3550.00    69.405
   3552.00    69.555
   3554.00    69.480
   3556.00    69.965
   3558.00    70.150
   3560.00    70.140
   3562.00    69.595
   3564.00    70.430
   3566.00    70.210
   3568.00    70.035
   3570.00    70.100
   3572.00    70.770
   3574.00    71.070
   3576.00    71.050
   3578.00    71.600
   3580.00    71.790
   3582.00    72.665
   3584.00    73.245
   3586.00    73.505
   3588.00    73.865
   3590.00    74.275
   3592.00    75.010
   3594.00    74.955
   3596.00    75.540
   3598.00    75.745
   3600.00    75.525
   3602.00    75.285
   3604.00    75.655
   3606.00    75.480
   3608.00    75.585
   3610.00    75.590
   3612.00    75.880
   3614.00    75.825
   3616.00    75.925
   3618.00    76.240
   3620.00    76.895
   3622.00    77.135
   3624.00    78.070
   3626.00    78.460
   3628.00    79.175
   3630.00    80.425
   3632.00    80.780
   3634.00    81.680
   3636.00    82.290
   3638.00    83.305
   3640.00    83.480
   3642.00    82.985
   3644.00    83.135
   3646.00    84.090
   3648.00    83.310
   3650.00    82.920
   3652.00    82.510
   3654.00    82.080
   3656.00    81.390
   3658.00    81.055
   3660.00    80.640
   3662.00    80.560
   3664.00    80.290
   3666.00    80.480
   3668.00    79.840
   3670.00    79.925
   3672.00    79.625
   3674.00    80.165
   3676.00    80.430
   3678.00    79.595
   3680.00    80.390
   3682.00    80.050
   3684.00    80.445
   3686.00    80.190
   3688.00    80.375
   3690.00    80.250
   3692.00    79.920
   3694.00    79.615
   3696.00    79.010
   3698.00    78.285
   3700.00    77.595
   3702.00    77.000
   3704.00    77.030
   3706.00    75.685
   3708.00    76.165
   3710.00    75.595
   3712.00    75.225
   3714.00    75.425
   3716.00    75.190
   3718.00    75.850
   3720.00    75.860
   3722.00    77.360
   3724.00    77.505
   3726.00    77.980
   3728.00    78.995
   3730.00    79.755
   3732.00    80.205
   3734.00    81.275
   3736.00    81.975
   3738.00    83.295
   3740.00    83.855
   3742.00    84.415
   3744.00    85.130
   3746.00    85.445
   3748.00    87.120
   3750.00    86.900
   3752.00    86.970
   3754.00    86.900
   3756.00    86.330
   3758.00    87.445
   3760.00    87.425
   3762.00    88.310
   3764.00    88.045
   3766.00    88.820
   3768.00    87.815
   3770.00    88.975
   3772.00    89.640
   3774.00    90.060
   3776.00    91.095
   3778.00    91.450
   3780.00    92.175
   3782.00    91.950
   3784.00    92.340
   3786.00    92.160
   3788.00    93.215
   3790.00    92.820
   3792.00    92.055
   3794.00    91.850
   3796.00    91.865
   3798.00    91.300
   3800.00    90.315
   3802.00    89.030
   3804.00    88.705
   3806.00    87.595
   3808.00    86.835
   3810.00    86.555
   3812.00    85.770
   3814.00    84.795
   3816.00    84.790
   3818.00    84.540
   3820.00    84.370
   3822.00    84.510
   3824.00    84.560
   3826.00    84.915
   3828.00    85.000
   3830.00    85.200
   3832.00    86.245
   3834.00    86.570
   3836.00    87.090
   3838.00    87.720
   3840.00    87.400
   3842.00    88.120
   3844.00    88.430
   3846.00    88.395
   3848.00    88.365
   3850.00    88.985
   3852.00    88.475
   3854.00    88.385
   3856.00    87.680
   3858.00    87.735
   3860.00    87.135
   3862.00    86.730
   3864.00    86.115
   3866.00    85.800
   3868.00    85.685
   3870.00    85.980
   3872.00    85.425
   3874.00    85.495
   3876.00    85.640
   3878.00    85.425
   3880.00    85.915
   3882.00    85.945
   3884.00    86.435
   3886.00    87.155
   3888.00    87.640
   3890.00    88.145
   3892.00    89.060
   3894.00    88.700
   3896.00    89.245
   3898.00    89.450
   3900.00    89.765
   3902.00    89.435
   3904.00    89.700
   3906.00    89.150
   3908.00    89.215
   3910.00    88.455
   3912.00    88.140
   3914.00    87.305
   3916.00    86.495
   3918.00    85.815
   3920.00    85.275
   3922.00    85.015
   3924.00    84.160
   3926.00    83.165
   3928.00    82.790
   3930.00    83.075
   3932.00    82.815
   3934.00    82.590
   3936.00    82.995
   3938.00    83.290
   3940.00    83.565
   3942.00    84.325
   3944.00    84.850
   3946.00    85.750
   3948.00    86.715
   3950.00    87.655
   3952.00    88.110
   3954.00    89.265
   3956.00    90.290
   3958.00    91.130
   3960.00    92.175
   3962.00    92.690
   3964.00    93.735
   3966.00    94.395
   3968.00    93.615
   3970.00    94.805
   3972.00    94.645
   3974.00    94.345
   3976.00    94.395
   3978.00    94.645
   3980.00    94.195
   3982.00    93.840
   3984.00    93.405
   3986.00    93.095
   3988.00    93.160
   3990.00    92.835
   3992.00    92.335
   3994.00    92.030
   3996.00    91.960
   3998.00    91.665
   4000.00    91.780
   4002.00    91.710
   4004.00    92.020
   4006.00    91.730
   4008.00    91.545
   4010.00    91.815
   4012.00    91.675
   4014.00    91.885
   4016.00    91.790
   4018.00    91.950
   4020.00    91.225
   4022.00    91.560
   4024.00    91.160
   4026.00    90.735
   4028.00    89.930
   4030.00    89.540
   4032.00    89.430
   4034.00    89.060
   4036.00    88.450
   4038.00    87.665
   4040.00    86.705
   4042.00    86.645
   4044.00    85.975
   4046.00    85.500
   4048.00    85.290
   4050.00    85.125
   4052.00    85.260
   4054.00    84.800
   4056.00    84.960
   4058.00    85.030
   4060.00    85.390
   4062.00    84.875
   4064.00    85.200
   4066.00    85.655
   4068.00    86.395
   4070.00    86.660
   4072.00    87.090
   4074.00    87.635
   4076.00    88.200
   4078.00    88.520
   4080.00    88.770
   4082.00    89.250
   4084.00    89.120
   4086.00    89.760
   4088.00    89.870
   4090.00    90.345
   4092.00    90.485
   4094.00    90.420
   4096.00    90.540
   4098.00    90.240
   4100.00    90.240
   4102.00    90.455
   4104.00    89.820
   4106.00    89.925
   4108.00    89.795
   4110.00    89.990
   4112.00    90.180
   4114.00    90.045
   4116.00    89.900
   4118.00    89.550
   4120.00    89.985
   4122.00    90.455
   4124.00    90.075
   4126.00    90.345
   4128.00    90.615
   4130.00    90.435
   4132.00    90.505
   4134.00    90.605
   4136.00    90.790
   4138.00    90.615
   4140.00    90.585
   4142.00    90.560
   4144.00    90.100
   4146.00    90.035
   4148.00    90.085
   4150.00    89.325
   4152.00    89.005
   4154.00    88.385
   4156.00    87.645
   4158.00    87.375
   4160.00    87.100
   4162.00    86.830
   4164.00    86.220
   4166.00    85.780
   4168.00    85.120
   4170.00    85.000
   4172.00    85.160
   4174.00    84.860
   4176.00    84.635
   4178.00    84.695
   4180.00    84.535
   4182.00    84.555
   4184.00    85.215
   4186.00    85.365
   4188.00    85.760
   4190.00    86.435
   4192.00    86.395
   4194.00    86.995
   4196.00    87.525
   4198.00    87.645
   4200.00    88.140
   4202.00    88.740
   4204.00    89.200
   4206.00    89.345
   4208.00    89.695
   4210.00    90.185
   4212.00    89.685
   4214.00    90.055
   4216.00    89.705
   4218.00    89.735
   4220.00    89.130
   4222.00    89.615
   4224.00    89.885
   4226.00    89.375
   4228.00    89.105
   4230.00    88.020
   4232.00    88.105
   4234.00    87.610
   4236.00    87.610
   4238.00    87.360
   4240.00    87.595
   4242.00    87.240
   4244.00    87.155
   4246.00    87.525
   4248.00    87.795
   4250.00    87.485
   4252.00    88.140
   4254.00    88.240
   4256.00    88.825
   4258.00    89.740
   4260.00    89.460
   4262.00    90.105
   4264.00    90.230
   4266.00    90.645
   4268.00    91.565
   4270.00    91.540
   4272.00    91.980
   4274.00    92.050
   4276.00    92.280
   4278.00    92.555
   4280.00    92.605
   4282.00    92.615
   4284.00    92.545
   4286.00    91.950
   4288.00    91.460
   4290.00    90.990
   4292.00    90.590
   4294.00    90.020
   4296.00    89.225
   4298.00    88.815
   4300.00    88.160
   4302.00    87.675
   4304.00    87.210
   4306.00    86.300
   4308.00    86.150
   4310.00    85.990
   4312.00    85.655
   4314.00    85.075
   4316.00    84.940
   4318.00    84.625
   4320.00    84.250
   4322.00    85.200
   4324.00    85.290
   4326.00    85.590
   4328.00    85.460
   4330.00    85.815
   4332.00    85.720
   4334.00    85.885
   4336.00    86.475
   4338.00    86.710
   4340.00    87.055
   4342.00    87.595
   4344.00    87.635
   4346.00    88.080
   4348.00    88.175
   4350.00    88.315
   4352.00    88.185
   4354.00    88.365
   4356.00    88.245
   4358.00    87.905
   4360.00    88.110
   4362.00    87.735
   4364.00    87.980
   4366.00    87.995
   4368.00    87.765
   4370.00    87.305
   4372.00    87.230
   4374.00    86.835
   4376.00    87.210
   4378.00    86.605
   4380.00    86.835
   4382.00    87.345
   4384.00    86.895
   4386.00    86.970
   4388.00    87.150
   4390.00    87.505
   4392.00    88.220
   4394.00    88.405
   4396.00    88.815
   4398.00    88.955
   4400.00    89.605
   4402.00    90.400
   4404.00    90.540
   4406.00    90.955
   4408.00    91.220
   4410.00    91.555
   4412.00    91.725
   4414.00    92.525
   4416.00    92.555
   4418.00    92.800
   4420.00    92.905
   4422.00    92.690
   4424.00    92.915
   4426.00    92.955
   4428.00    92.455
   4430.00    92.340
   4432.00    91.995
   4434.00    91.635
   4436.00    91.295
   4438.00    90.885
   4440.00    90.375
   4442.00    90.090
   4444.00    90.055
   4446.00    89.825
   4448.00    88.860
   4450.00    89.255
   4452.00    88.560
   4454.00    88.150
   4456.00    88.705
   4458.00    88.155
   4460.00    88.505
   4462.00    88.595
   4464.00    88.765
   4466.00    89.125
   4468.00    89.250
   4470.00    89.175
   4472.00    89.580
   4474.00    89.865
   4476.00    90.210
   4478.00    90.310
   4480.00    90.690
   4482.00    91.270
   4484.00    91.475
   4486.00    91.430
   4488.00    91.650
   4490.00    91.725
   4492.00    91.735
   4494.00    91.835
   4496.00    91.680
   4498.00    91.870
   4500.00    91.835
   4502.00    91.450
   4504.00    91.325
   4506.00    91.105
   4508.00    91.160
   4510.00    90.820
   4512.00    90.835
   4514.00    90.930
   4516.00    90.650
   4518.00    90.635
   4520.00    90.875
   4522.00    90.650
   4524.00    90.860
   4526.00    91.015
   4528.00    91.205
   4530.00    91.495
   4532.00    91.750
   4534.00    91.880
   4536.00    92.235
   4538.00    92.115
   4540.00    92.285
   4542.00    92.450
   4544.00    93.050
   4546.00    92.805
   4548.00    92.675
   4550.00    93.010
   4552.00    93.175
   4554.00    92.685
   4556.00    92.700
   4558.00    92.170
   4560.00    91.700
   4562.00    91.165
   4564.00    90.655
   4566.00    89.920
   4568.00    89.535
   4570.00    88.525
   4572.00    88.045
   4574.00    87.090
   4576.00    86.270
   4578.00    86.080
   4580.00    85.325
   4582.00    84.630
   4584.00    84.190
   4586.00    84.035
   4588.00    83.590
   4590.00    83.530
   4592.00    83.610
   4594.00    83.310
   4596.00    83.335
   4598.00    83.545
   4600.00    84.060
   4602.00    84.605
   4604.00    85.095
   4606.00    85.640
   4608.00    86.005
   4610.00    86.590
   4612.00    87.310
   4614.00    88.055
   4616.00    88.890
   4618.00    89.600
   4620.00    90.305
   4622.00    91.010
   4624.00    91.625
   4626.00    92.310
   4628.00    92.685
   4630.00    93.105
   4632.00    93.355
   4634.00    93.685
   4636.00    93.625
   4638.00    93.630
   4640.00    93.705
   4642.00    93.295
   4644.00    93.315
   4646.00    93.125
   4648.00    92.585
   4650.00    92.205
   4652.00    92.060
   4654.00    91.850
   4656.00    91.750
   4658.00    91.255
   4660.00    90.785
   4662.00    90.395
   4664.00    90.300
   4666.00    89.685
   4668.00    89.270
   4670.00    88.995
   4672.00    88.590
   4674.00    87.955
   4676.00    87.470
   4678.00    86.680
   4680.00    85.575
   4682.00    84.775
   4684.00    83.840
   4686.00    82.630
   4688.00    81.150
   4690.00    79.975
   4692.00    78.685
   4694.00    77.350
   4696.00    75.955
   4698.00    74.485
   4700.00    73.035
   4702.00    71.800
   4704.00    70.805
   4706.00    69.970
   4708.00    69.445
   4710.00    69.270
   4712.00    69.380
   4714.00    69.585
   4716.00    70.105
   4718.00    71.135
   4720.00    72.510
   4722.00    74.130
   4724.00    76.415
   4726.00    79.155
   4728.00    82.525
   4730.00    85.450
   4732.00    88.435
   4734.00    91.350
   4736.00    92.910
   4738.00    93.270
   4740.00    91.240
   4742.00    87.030
   4744.00    80.350
   4746.00    72.235
   4748.00    63.235
   4750.00    54.040
   4752.00    45.480
   4754.00    38.135
   4756.00    31.635
   4758.00    26.195
   4760.00    21.905
   4762.00    18.300
   4764.00    15.390
   4766.00    13.020
   4768.00    11.050
   4770.00     9.440
   4772.00     8.125
   4774.00     7.055
   4776.00     6.095
   4778.00     5.350
   4780.00     4.695
   4782.00     4.175
   4784.00     3.750
   4786.00     3.305
   4788.00     2.970
   4790.00     2.655
   4792.00     2.400
   4794.00     2.180
   4796.00     1.960
   4798.00     1.790
   4800.00     1.635
   4802.00     1.485
   4804.00     1.355
   4806.00     1.240
   4808.00     1.130
   4810.00     1.020
   4812.00      .930
   4814.00      .840
   4816.00      .780
   4818.00      .705
   4820.00      .625
   4822.00      .565
   4824.00      .520
   4826.00      .470
   4828.00      .430
   4830.00      .385
   4832.00      .345
   4834.00      .295
   4836.00      .270
   4838.00      .245
   4840.00      .225
   4842.00      .190
   4844.00      .180
   4846.00      .160
   4848.00      .140
   4850.00      .130
   4852.00      .115
   4854.00      .105
   4856.00      .095
   4858.00      .085
   4860.00      .080
   4862.00      .075
   4864.00      .070
   4866.00      .055
   4868.00      .050
   4870.00      .045
   4872.00      .040
   4874.00      .035
   4876.00      .035
   4878.00      .030
   4880.00      .025
   4882.00      .030
   4884.00      .025
   4886.00      .020
   4888.00      .020
   4890.00      .015
   4892.00      .015
   4894.00      .015
   4896.00      .015
   4898.00      .010
   4900.00      .015
   4902.00      .015
   4904.00      .010
   4906.00      .015
   4908.00      .010
   4910.00      .010
   4912.00      .005
   4914.00      .010
   4916.00      .010
   4918.00      .005
   4920.00      .005
   4922.00      .010
   4924.00      .005
   4926.00      .005
   4928.00      .005
   4930.00      .005
   4932.00      .005
   4934.00      .005
   4936.00      .010
   4938.00      .010
   4940.00      .005
   4942.00      .005
   4944.00      .005
   4946.00      .005
   4948.00      .005
   4950.00      .005
   4952.00      .005
   4954.00      .005
   4956.00      .005
   4958.00      .005
   4960.00      .005
   4962.00      .005
   4964.00      .005
   4966.00      .005
   4968.00      .000
   4970.00      .005
   4972.00      .005
   4974.00      .000
   4976.00      .005
   4978.00      .005
   4980.00      .005
   4982.00      .005
   4984.00      .000
   4986.00      .000
   4988.00      .000
   4990.00      .000
   4992.00      .005
   4994.00      .000
   4996.00      .000
   4998.00      .000
   5000.00      .000
